#  kappa           omega           dperp           zero eigenvalue
   5.0375070e-01   7.1450168e-01  -1.0725690e-01   1.6683985e-10
   4.9971007e-01   7.1211433e-01  -9.4305258e-02   1.9345092e-10
   4.9581064e-01   7.0960741e-01  -8.3199435e-02   1.6105384e-10
   4.9203707e-01   7.0699873e-01  -7.3624069e-02   1.6578224e-10
   4.8837653e-01   7.0430278e-01  -6.5331572e-02   1.2080576e-10
   4.8481816e-01   7.0153151e-01  -5.8124400e-02   1.2521156e-10
   4.8135265e-01   6.9869488e-01  -5.1842715e-02   1.0620488e-10
   4.7797199e-01   6.9580128e-01  -4.6355599e-02   9.2202293e-11
   4.7466916e-01   6.9285787e-01  -4.1554664e-02   1.3382681e-10
   4.7143801e-01   6.8987076e-01  -3.7349318e-02   6.6310313e-11
   4.6827311e-01   6.8684526e-01  -3.3663203e-02   9.5936856e-11
   4.6516962e-01   6.8378598e-01  -3.0431469e-02   1.1533312e-10
   4.6212320e-01   6.8069694e-01  -2.7598674e-02   9.0064767e-11
   4.5912999e-01   6.7758168e-01  -2.5117126e-02   1.0837317e-10
   4.5618645e-01   6.7444335e-01  -2.2945581e-02   1.2260598e-10
   4.5328943e-01   6.7128473e-01  -2.1048193e-02   9.7806801e-11
   4.5043602e-01   6.6810829e-01  -1.9393673e-02   1.0651870e-10
   4.4762360e-01   6.6491627e-01  -1.7954601e-02   7.2426774e-11
   4.4484974e-01   6.6171066e-01  -1.6706858e-02   9.1006280e-11
   4.4211223e-01   6.5849325e-01  -1.5629167e-02   9.2577155e-11
   4.3940904e-01   6.5526567e-01  -1.4702696e-02   8.4533698e-11
   4.3673830e-01   6.5202940e-01  -1.3910741e-02   9.7354559e-11
   4.3409826e-01   6.4878578e-01  -1.3238445e-02   6.9952765e-11
   4.3148732e-01   6.4553602e-01  -1.2672572e-02   1.0372643e-10
   4.2890401e-01   6.4228125e-01  -1.2201305e-02   9.7361639e-11
   4.2634692e-01   6.3902247e-01  -1.1814077e-02   1.0153774e-10
   4.2381479e-01   6.3576064e-01  -1.1501429e-02   6.2412235e-11
   4.2130642e-01   6.3249660e-01  -1.1254880e-02   6.5314778e-11
   4.1882068e-01   6.2923116e-01  -1.1066819e-02   8.4162104e-11
   4.1635655e-01   6.2596503e-01  -1.0930412e-02   1.0155840e-10
   4.1391304e-01   6.2269890e-01  -1.0839517e-02   8.4122612e-11
   4.1148925e-01   6.1943338e-01  -1.0788613e-02   7.1418186e-11
   4.0908433e-01   6.1616905e-01  -1.0772732e-02   9.0974854e-11
   4.0669747e-01   6.1290645e-01  -1.0787409e-02   6.7949622e-11
   4.0432795e-01   6.0964608e-01  -1.0828624e-02   8.4144376e-11
   4.0197504e-01   6.0638839e-01  -1.0892766e-02   7.0404245e-11
   3.9963810e-01   6.0313382e-01  -1.0976584e-02   1.2045499e-10
   3.9731651e-01   5.9988276e-01  -1.1077163e-02   1.0729743e-10
   3.9500969e-01   5.9663559e-01  -1.1191882e-02   1.0609191e-10
   3.9271709e-01   5.9339265e-01  -1.1318390e-02   9.4472132e-11
   3.9043821e-01   5.9015426e-01  -1.1454583e-02   8.9478768e-11
   3.8817256e-01   5.8692074e-01  -1.1598578e-02   1.0157567e-10
   3.8591968e-01   5.8369236e-01  -1.1748692e-02   6.8488419e-11
   3.8367916e-01   5.8046938e-01  -1.1903426e-02   7.4677330e-11
   3.8145059e-01   5.7725206e-01  -1.2061445e-02   6.2738120e-11
   3.7923361e-01   5.7404063e-01  -1.2221566e-02   9.9309556e-11
   3.7702784e-01   5.7083530e-01  -1.2382742e-02   1.0883244e-10
   3.7483296e-01   5.6763627e-01  -1.2544051e-02   8.6016805e-11
   3.7264867e-01   5.6444373e-01  -1.2704682e-02   1.0452693e-10
   3.7047465e-01   5.6125787e-01  -1.2863926e-02   1.0579102e-10
   3.6831065e-01   5.5807885e-01  -1.3021169e-02   9.4629085e-11
   3.6615638e-01   5.5490682e-01  -1.3175879e-02   8.2658104e-11
   3.6401162e-01   5.5174194e-01  -1.3327601e-02   9.9479482e-11
   3.6187613e-01   5.4858433e-01  -1.3475948e-02   9.6496490e-11
   3.5974970e-01   5.4543413e-01  -1.3620598e-02   1.2419268e-10
   3.5763212e-01   5.4229146e-01  -1.3761281e-02   1.0920181e-10
   3.5552320e-01   5.3915643e-01  -1.3897781e-02   1.1184035e-10
   3.5342276e-01   5.3602915e-01  -1.4029927e-02   1.1125976e-10
   3.5133064e-01   5.3290971e-01  -1.4157589e-02   1.1603825e-10
   3.4924667e-01   5.2979821e-01  -1.4280672e-02   1.2859039e-10
   3.4717072e-01   5.2669474e-01  -1.4399117e-02   1.1913798e-10
   3.4510263e-01   5.2359938e-01  -1.4512892e-02   1.3509974e-10
   3.4304229e-01   5.2051220e-01  -1.4621992e-02   1.3505697e-10
   3.4098957e-01   5.1743327e-01  -1.4726434e-02   1.3721909e-10
   3.3894435e-01   5.1436267e-01  -1.4826257e-02   1.5264044e-10
   3.3690654e-01   5.1130044e-01  -1.4921516e-02   1.6082615e-10
   3.3487602e-01   5.0824667e-01  -1.5012284e-02   1.4486545e-10
   3.3285272e-01   5.0520138e-01  -1.5098644e-02   1.5887886e-10
   3.3083653e-01   5.0216465e-01  -1.5180693e-02   1.6654475e-10
   3.2882739e-01   4.9913651e-01  -1.5258536e-02   1.5465495e-10
   3.2682520e-01   4.9611701e-01  -1.5332288e-02   1.7308480e-10
   3.2482992e-01   4.9310619e-01  -1.5402070e-02   1.8097047e-10
   3.2284146e-01   4.9010408e-01  -1.5468006e-02   1.8407731e-10
   3.2085977e-01   4.8711074e-01  -1.5530229e-02   1.9191453e-10
   3.1888479e-01   4.8412618e-01  -1.5588871e-02   1.8503953e-10
   3.1691647e-01   4.8115044e-01  -1.5644066e-02   1.8500641e-10
   3.1495475e-01   4.7818354e-01  -1.5695953e-02   1.9574009e-10
   3.1299960e-01   4.7522552e-01  -1.5744668e-02   2.0999768e-10
   3.1105097e-01   4.7227640e-01  -1.5790348e-02   2.0007420e-10
   3.0910882e-01   4.6933621e-01  -1.5833128e-02   2.0141085e-10
   3.0717312e-01   4.6640495e-01  -1.5873144e-02   2.0087637e-10
   3.0524383e-01   4.6348266e-01  -1.5910528e-02   2.2736986e-10
   3.0332092e-01   4.6056935e-01  -1.5945409e-02   2.2913745e-10
   3.0140437e-01   4.5766504e-01  -1.5977916e-02   2.3027338e-10
   2.9949414e-01   4.5476975e-01  -1.6008173e-02   2.5786899e-10
   2.9759021e-01   4.5188348e-01  -1.6036302e-02   2.5085244e-10
   2.9569256e-01   4.4900626e-01  -1.6062419e-02   2.2724229e-10
   2.9380116e-01   4.4613809e-01  -1.6086639e-02   2.5545722e-10
   2.9191601e-01   4.4327898e-01  -1.6109073e-02   2.6247956e-10
   2.9003708e-01   4.4042895e-01  -1.6129825e-02   2.8737324e-10
   2.8816435e-01   4.3758801e-01  -1.6148999e-02   2.8139992e-10
   2.8629782e-01   4.3475616e-01  -1.6166692e-02   2.8298062e-10
   2.8443746e-01   4.3193342e-01  -1.6182998e-02   2.8854057e-10
   2.8258327e-01   4.2911979e-01  -1.6198007e-02   2.9290224e-10
   2.8073523e-01   4.2631527e-01  -1.6211805e-02   3.0420130e-10
   2.7889333e-01   4.2351987e-01  -1.6224474e-02   3.2083662e-10
   2.7705757e-01   4.2073361e-01  -1.6236090e-02   3.3059410e-10
   2.7522793e-01   4.1795648e-01  -1.6246729e-02   1.1863864e-10
   2.6959422e-01   4.0940443e-01  -1.6274224e-02   9.3807917e-11
   2.6778963e-01   4.0666481e-01  -1.6281538e-02   2.6029463e-10
   2.6599113e-01   4.0393434e-01  -1.6288192e-02   2.7201240e-10
   2.6419873e-01   4.0121302e-01  -1.6294237e-02   2.8183393e-10
   2.6241240e-01   3.9850087e-01  -1.6299720e-02   2.8751857e-10
   2.6063215e-01   3.9579788e-01  -1.6304687e-02   2.9138932e-10
   2.5885798e-01   3.9310406e-01  -1.6309181e-02   2.9526016e-10
   2.5708989e-01   3.9041940e-01  -1.6313240e-02   3.0833802e-10
   2.5532786e-01   3.8774391e-01  -1.6316902e-02   3.1744096e-10
   2.5357190e-01   3.8507760e-01  -1.6320201e-02   3.2116518e-10
   2.5182201e-01   3.8242045e-01  -1.6323168e-02   3.3806105e-10
   2.5007818e-01   3.7977248e-01  -1.6325833e-02   3.3191205e-10
   2.4834041e-01   3.7713368e-01  -1.6328223e-02   3.4946464e-10
   2.4660870e-01   3.7450406e-01  -1.6330363e-02   3.5640842e-10
   2.4488305e-01   3.7188362e-01  -1.6332276e-02   3.8078007e-10
   2.4316346e-01   3.6927235e-01  -1.6333985e-02   3.7769635e-10
   2.4144992e-01   3.6667026e-01  -1.6335508e-02   3.9001080e-10
   2.3974244e-01   3.6407736e-01  -1.6336863e-02   4.1206124e-10
   2.3804101e-01   3.6149363e-01  -1.6338068e-02   4.1017149e-10
   2.3634564e-01   3.5891908e-01  -1.6339136e-02   4.3222519e-10
   2.3465632e-01   3.5635371e-01  -1.6340082e-02   4.3024830e-10
   2.3297306e-01   3.5379753e-01  -1.6340919e-02   4.5755938e-10
   2.3129584e-01   3.5125053e-01  -1.6341658e-02   4.6953744e-10
   2.2962468e-01   3.4871271e-01  -1.6342309e-02   4.8156639e-10
   2.2795957e-01   3.4618407e-01  -1.6342882e-02   4.8845386e-10
   2.2630050e-01   3.4366462e-01  -1.6343384e-02   5.0731187e-10
   2.2464749e-01   3.4115435e-01  -1.6343826e-02   5.1099020e-10
   2.2300053e-01   3.3865327e-01  -1.6344211e-02   5.3823815e-10
   2.2135962e-01   3.3616137e-01  -1.6344549e-02   5.5574348e-10
   2.1972476e-01   3.3367865e-01  -1.6344842e-02   5.7469182e-10
   2.1809595e-01   3.3120512e-01  -1.6345098e-02   5.8174518e-10
   2.1647319e-01   3.2874077e-01  -1.6345321e-02   6.0522591e-10
   2.1485648e-01   3.2628561e-01  -1.6345513e-02   6.2319323e-10
   2.1324582e-01   3.2383964e-01  -1.6345680e-02   6.4319409e-10
   2.1164121e-01   3.2140285e-01  -1.6345824e-02   6.5367008e-10
   2.1004265e-01   3.1897525e-01  -1.6345948e-02   6.8290016e-10
   2.0845014e-01   3.1655683e-01  -1.6346055e-02   6.9654528e-10
   2.0686367e-01   3.1414760e-01  -1.6346147e-02   7.2827087e-10
   2.0528326e-01   3.1174755e-01  -1.6346225e-02   7.3863054e-10
   2.0370890e-01   3.0935670e-01  -1.6346292e-02   7.6591312e-10
   2.0214059e-01   3.0697502e-01  -1.6346349e-02   7.9010552e-10
   2.0057832e-01   3.0460254e-01  -1.6346398e-02   8.0887615e-10
   1.9902211e-01   3.0223924e-01  -1.6346440e-02   8.3376022e-10
   1.9747194e-01   2.9988513e-01  -1.6346475e-02   8.5818778e-10
   1.9592783e-01   2.9754021e-01  -1.6346504e-02   8.8995972e-10
   1.9438977e-01   2.9520447e-01  -1.6346529e-02   9.1658230e-10
   1.9285775e-01   2.9287792e-01  -1.6346550e-02   9.5029576e-10
   1.9133179e-01   2.9056056e-01  -1.6346568e-02   9.7391591e-10
   1.8981187e-01   2.8825239e-01  -1.6346582e-02   1.0047924e-09
   1.8829801e-01   2.8595340e-01  -1.6346594e-02   1.0455618e-09
   1.8679020e-01   2.8366361e-01  -1.6346605e-02   1.0683666e-09
   1.8528843e-01   2.8138300e-01  -1.6346613e-02   1.1163082e-09
   1.8379272e-01   2.7911157e-01  -1.6346620e-02   1.1442578e-09
   1.8230306e-01   2.7684934e-01  -1.6346626e-02   1.1777192e-09
   1.8081945e-01   2.7459630e-01  -1.6346630e-02   1.2189075e-09
   1.7934189e-01   2.7235244e-01  -1.6346634e-02   1.2534611e-09
   1.7787038e-01   2.7011777e-01  -1.6346637e-02   1.3005224e-09
   1.7640492e-01   2.6789229e-01  -1.6346640e-02   1.3453044e-09
   1.7494551e-01   2.6567600e-01  -1.6346641e-02   1.3879619e-09
   1.7349215e-01   2.6346890e-01  -1.6346643e-02   1.4297907e-09
   1.7204484e-01   2.6127099e-01  -1.6346644e-02   1.4772095e-09
   1.7060358e-01   2.5908227e-01  -1.6346645e-02   1.5306679e-09
   1.6916838e-01   2.5690273e-01  -1.6346646e-02   1.5830133e-09
   1.6773922e-01   2.5473239e-01  -1.6346646e-02   1.6324730e-09
   1.6631612e-01   2.5257123e-01  -1.6346646e-02   1.6849644e-09
   1.6489907e-01   2.5041927e-01  -1.6346647e-02   1.7390143e-09
   1.6348807e-01   2.4827649e-01  -1.6346647e-02   1.8037303e-09
   1.6208312e-01   2.4614291e-01  -1.6346647e-02   1.8678591e-09
   1.6068422e-01   2.4401851e-01  -1.6346646e-02   1.9294892e-09
   1.5929138e-01   2.4190331e-01  -1.6346646e-02   1.9983354e-09
   1.5790458e-01   2.3979729e-01  -1.6346646e-02   2.0649737e-09
   1.5652384e-01   2.3770046e-01  -1.6346646e-02   2.1401397e-09
   1.5514915e-01   2.3561283e-01  -1.6346645e-02   2.2143216e-09
   1.5378051e-01   2.3353438e-01  -1.6346645e-02   2.2922078e-09
   1.5241792e-01   2.3146513e-01  -1.6346645e-02   2.3740274e-09
   1.5106138e-01   2.2940506e-01  -1.6346644e-02   2.4578069e-09
   1.4971090e-01   2.2735419e-01  -1.6346644e-02   2.5432584e-09
   1.4836647e-01   2.2531251e-01  -1.6346643e-02   2.6303497e-09
   1.4702809e-01   2.2328002e-01  -1.6346643e-02   2.7229465e-09
   1.4569576e-01   2.2125672e-01  -1.6346642e-02   2.8252001e-09
   1.4436949e-01   2.1924261e-01  -1.6346641e-02   2.9264906e-09
   1.4304927e-01   2.1723769e-01  -1.6346641e-02   3.0325829e-09
   1.4173510e-01   2.1524196e-01  -1.6346640e-02   3.1485629e-09
   1.4042698e-01   2.1325543e-01  -1.6346639e-02   3.2592340e-09
   1.3912491e-01   2.1127808e-01  -1.6346639e-02   3.3824836e-09
   1.3782890e-01   2.0930993e-01  -1.6346638e-02   3.5066998e-09
   1.3653894e-01   2.0735097e-01  -1.6346637e-02   3.6399381e-09
   1.3525503e-01   2.0540120e-01  -1.6346636e-02   3.7731420e-09
   1.3397718e-01   2.0346062e-01  -1.6346636e-02   3.9169165e-09
   1.3270538e-01   2.0152924e-01  -1.6346635e-02   4.0611419e-09
   1.3143963e-01   1.9960704e-01  -1.6346634e-02   4.2184063e-09
   1.3017993e-01   1.9769404e-01  -1.6346633e-02   4.3799765e-09
   1.2892629e-01   1.9579023e-01  -1.6346632e-02   4.5454248e-09
   1.2767870e-01   1.9389562e-01  -1.6346631e-02   4.7233639e-09
   1.2643716e-01   1.9201019e-01  -1.6346630e-02   4.9085540e-09
   1.2520168e-01   1.9013396e-01  -1.6346629e-02   5.1010295e-09
   1.2397225e-01   1.8826692e-01  -1.6346627e-02   5.2973259e-09
   1.2274887e-01   1.8640907e-01  -1.6346626e-02   5.5045113e-09
   1.2153155e-01   1.8456042e-01  -1.6346625e-02   5.7189402e-09
   1.2032028e-01   1.8272096e-01  -1.6346624e-02   5.9458721e-09
   1.1911506e-01   1.8089069e-01  -1.6346622e-02   6.1834565e-09
   1.1791590e-01   1.7906962e-01  -1.6346621e-02   6.4314548e-09
   1.1672279e-01   1.7725774e-01  -1.6346619e-02   6.6904339e-09
   1.1553573e-01   1.7545505e-01  -1.6346618e-02   6.9628406e-09
   1.1435473e-01   1.7366155e-01  -1.6346616e-02   7.2448541e-09
   1.1317978e-01   1.7187725e-01  -1.6346614e-02   7.5441838e-09
   1.1201089e-01   1.7010214e-01  -1.6346659e-02  -9.8305484e-13
   1.1084805e-01   1.6833623e-01  -1.6346659e-02   3.3922271e-13
   1.0969126e-01   1.6657951e-01  -1.6346659e-02  -6.6540655e-13
   1.0854053e-01   1.6483198e-01  -1.6346659e-02  -5.0073224e-13
   1.0739585e-01   1.6309365e-01  -1.6346659e-02  -2.1279994e-12
   1.0625723e-01   1.6136451e-01  -1.6346659e-02  -1.3395362e-12
   1.0512466e-01   1.5964456e-01  -1.6346659e-02  -1.3795348e-12
   1.0399814e-01   1.5793381e-01  -1.6346659e-02  -1.0827285e-12
   1.0287768e-01   1.5623225e-01  -1.6346659e-02  -1.1237228e-12
   1.0176327e-01   1.5453989e-01  -1.6346659e-02  -1.5331489e-12
   1.0065492e-01   1.5285672e-01  -1.6346659e-02   1.8643498e-13
   9.9552619e-02   1.5118275e-01  -1.6346659e-02   1.0291053e-12
